  -15.7229
   -0.1314
    4.4441
    4.7701
   16.3059
   32.5196
   38.2094
   41.1852
   46.2251
   45.9959
   35.7599
   31.1628
   42.2916
   57.1864
   65.9687
   67.5147
   63.0650
   56.9418
   56.4425
   55.2283
   50.1373
   44.2767
   38.2591
   33.8861
   28.3623
   23.9257
   22.8656
   21.4691
   22.5973
   28.0038
   33.1709
   33.9501
   33.4167
   34.3135
   35.6588
   38.3848
   36.7927
   25.9305
   15.1753
   13.8634
   16.6943
   18.3949
   17.4855
   16.7624
   18.7051
   20.2667
   17.9932
   17.0547
   15.1552
   15.4051
   14.9924
   10.9082
    6.8807
    0.3570
   -4.1070
   -0.9408
   -0.0386
   -8.3787
  -16.2828
  -17.4078
  -15.4133
  -11.1387
   -8.4179
   -6.0967
   -3.9621
   -5.5812
  -11.7348
  -19.6646
  -21.8516
  -19.4800
  -18.6093
  -19.5303
  -22.4109
  -26.0669
  -26.7516
  -25.3797
  -28.2386
  -30.9674
  -32.6905
  -36.6513
  -41.4672
  -46.6966
  -52.3574
  -54.6595
  -53.2106
  -43.1540
  -32.3041
  -23.1772
  -10.9930
   -1.7248
    0.7520
    1.2920
    2.8550
    8.2921
   14.7095
   21.4438
   27.6584
   32.7627
   35.4570
   32.4723
   27.5618
   27.5958
   26.8743
   20.3425
   13.2655
   11.4407
   14.2639
   17.1996
   18.1476
   20.1437
   21.4216
   18.3593
   17.2319
   23.5015
   21.0202
    5.0304
   -5.2160
   -2.3617
   10.0219
   23.8801
   34.6428
   38.1494
   33.8875
   33.3353
   39.4781
   44.4102
   45.3876
   39.6762
   31.1055
   31.1598
   36.6957
   38.3792
   34.7264
   30.8532
   28.1479
   24.3039
   14.8242
    7.9307
   13.4249
    8.5010
   -8.1176
  -23.0602
  -28.8538
  -28.8661
  -23.0440
  -16.6744
  -13.0174
  -10.9678
  -10.6990
  -10.1092
   -8.6343
   -5.5226
   -3.1394
   -7.9633
  -14.5733
  -19.5125
  -28.9688
  -37.4971
  -38.4462
  -37.4299
  -36.6238
  -33.7719
  -31.9501
  -30.8750
  -28.4095
  -23.4488
  -20.0752
  -19.9028
  -23.8131
  -23.2205
  -16.3035
   -9.3287
   -5.5222
   -8.8784
  -13.2868
  -13.7562
  -10.7273
   -4.9960
   -0.7458
    2.5502
    7.2945
    8.9179
    8.0101
   11.4421
   11.0814
    6.1865
    2.7741
    7.0429
   11.7367
   11.2870
    7.7422
   -2.7574
    0.6690
   13.0114
   19.5304
   20.6869
   21.9617
   20.8140
   16.9064
   16.1234
   10.8236
    3.3364
   -1.1666
   -3.6647
   -4.3968
   -3.1354
   -5.1312
  -15.1529
  -21.9809
  -23.8992
  -24.8982
  -28.3340
  -31.9149
  -30.6268
  -25.3268
  -18.0659
  -12.2809
   -8.1265
   -1.5400
    8.6999
   17.6493
   22.8035
   23.5652
   18.4460
    6.9534
   -6.9517
  -14.8981
  -12.9137
   -8.5907
   -3.3678
    6.0986
    8.0993
   -0.5431
  -11.3104
  -17.1674
  -12.9125
   -6.9380
   -6.1277
   -7.7697
   -6.7205
   -8.5991
  -13.8020
  -22.3068
  -32.9869
  -37.8179
  -29.0950
  -18.6792
  -22.0615
  -22.9308
   -9.1992
    6.0771
   10.8498
    4.8519
    1.2907
    3.3027
   -0.3675
   -5.8909
  -10.8664
  -17.4046
  -19.8361
  -19.1374
  -17.1628
  -17.6373
  -29.2366
  -43.4904
  -52.2237
  -56.2684
  -61.2364
  -68.6438
  -72.8761
  -65.1037
  -59.9921
  -69.4097
  -75.0667
  -72.0119
  -71.2375
  -67.6665
  -59.0689
  -60.5695
  -71.9339
  -71.2271
  -72.0344
  -76.9871
  -70.3181
  -61.3546
  -64.0415
  -61.4486
  -56.8096
  -63.6718
  -70.4032
  -69.8039
  -62.8536
  -61.1300
  -66.5817
  -59.2061
  -35.1417
  -24.3045
  -41.4615
  -51.8056
  -48.6669
  -34.3542
  -12.3317
   -0.7829
  -19.4783
  -49.6094
  -51.5977
  -31.6011
   -8.9261
    6.7414
   40.4697
   81.9219
   87.3338
   74.8405
   50.6384
   21.1739
  -16.2477
   -8.9542
   38.9096
   37.7479
   26.9643
   45.1979
   35.0779
   -2.5679
  -15.4829
   -7.8818
   -2.8466
   18.3773
   50.4340
   76.4370
  114.5173
  101.9370
   54.4799
   33.7528
   26.7283
   61.8097
  100.6277
   64.4215
   21.0949
   -9.7529
    8.0408
   73.1462
   70.9351
   39.8465
   34.0599
   41.5402
   40.7780
   74.3737
   66.6887
    5.7701
  -23.4521
  -11.1281
    8.3446
   42.9752
   66.7530
   45.9693
   28.6318
   22.1239
   18.3292
   14.4874
   -2.0545
   12.7603
   37.7911
    4.4768
   -1.9632
   14.4522
    2.4505
   11.3903
   31.4300
   40.0280
    0.2565
  -60.7631
  -67.0033
  -40.6578
  -39.7520
  -31.3967
    5.6763
  -41.8797
  -99.8108
 -101.9570
  -96.1180
  -78.4920
  -45.4586
  -21.0899
   -5.2182
  -10.5274
  -34.9182
  -43.4297
  -47.8063
 -104.4286
 -109.1661
  -41.9174
    8.8722
    8.7869
   -6.4884
  -48.5586
  -54.2251
  -27.9961
  -13.3054
   14.4354
    3.1298
  -73.4583
 -107.7828
  -88.2432
  -66.1156
  -28.8463
    5.6031
  -22.6704
   -8.9819
   22.0392
   13.0522
   61.5210
   93.7836
   11.6963
  -40.0659
  -34.6693
    6.2605
   37.1074
   37.9502
   28.5165
   34.3922
   42.1154
   31.8326
   28.0533
   60.4004
   57.4488
   52.7526
    5.9987
  -13.6888
   49.4198
   77.6632
   10.3303
  -16.7343
   -5.5826
   -5.4326
    5.8876
   34.1451
   25.3407
   16.5834
   15.8227
   22.1625
   47.2176
   80.0005
   83.2603
   37.1278
   13.3961
   32.4362
   36.7384
   29.2386
   33.4678
   46.8606
    8.3843
   -7.0086
   43.9085
   86.3338
   68.2544
   26.7974
   -9.1859
  -23.6027
  -19.3966
   40.4017
  101.4558
   94.5109
   14.4748
  -27.5400
  -34.1166
  -43.6923
  -31.0166
    2.4215
   -2.0355
   25.7225
   52.0701
   51.7224
    7.6857
  -58.7010
  -66.4230
  -40.8259
  -45.2530
  -58.5708
  -46.9244
  -37.7603
  -23.9606
   35.5443
   64.8015
   34.3249
  -41.0225
  -87.4786
  -83.9110
  -32.7465
  -19.2261
  -25.7792
  -26.6964
   -6.2664
   -1.5268
   -1.5513
   50.2555
   64.0352
   20.8961
   43.7247
   77.8075
   66.5356
   -3.9225
  -52.6619
  -55.0101
  -29.4088
   35.0666
   85.3867
   37.0907
  -15.8382
   43.5678
   87.5713
   47.2745
  -10.2559
   -2.0627
    2.1514
  -39.9543
  -30.0901
   43.4626
   68.1169
   34.8871
   36.4881
   52.7736
    6.8917
  -40.5771
  -44.9996
   -2.1663
   25.7995
   18.2130
   62.5814
  100.2300
   43.9825
  -27.6153
  -22.5872
   28.8309
   37.5282
   13.9740
   -6.7576
  -24.5513
   23.4800
   95.2163
   43.6753
  -36.5205
  -48.9133
  -54.2803
  -45.4020
  -37.3190
  -29.8840
   38.6126
   66.4921
   -4.5113
  -52.4241
  -12.0550
   45.6503
   28.0180
  -12.1149
  -44.1255
  -45.8737
  -40.3466
  -44.6292
  -19.8630
  -36.0341
  -82.6256
  -38.7989
   16.5761
  -13.6229
  -30.8183
  -34.3799
  -21.2501
  -50.8184
  -86.0712
  -88.2692
  -55.2830
  -13.9715
  -46.9851
 -110.5643
 -106.1494
  -60.2552
  -38.3016
  -37.9931
  -59.7323
  -89.3643
  -45.8130
   46.1720
   69.5550
  -27.3490
 -125.9371
 -117.6204
  -75.0887
  -54.0692
  -32.5048
   -3.5101
    9.8269
   43.9061
   47.4246
   28.7041
   10.0723
  -25.1342
  -61.8770
  -58.4731
  -16.0471
  -21.9525
  -47.2624
  -49.7393
  -25.4478
    4.4583
   40.6063
  108.5376
  110.7727
   -2.4032
  -49.1402
   42.6572
   52.8261
  -28.0630
  -45.2149
  -26.5653
  -26.8331
   18.3867
   93.2387
   38.8277
  -26.9240
  -25.8578
   21.8687
   60.4441
  104.4579
   85.5004
   60.9917
   49.1197
   -3.8803
   -4.5699
   15.3595
   19.9425
   33.5645
   40.8743
   -6.5105
  -56.8504
  -18.0181
  137.4657
  189.2846
   67.6053
   -0.3534
   43.0719
   69.9860
   41.3080
    4.0980
    8.7873
   49.8186
   88.6367
   66.3989
    9.3334
    9.3999
   52.8195
   59.5929
   76.0149
  108.4286
  107.0657
  112.5148
  103.9032
   52.9751
   47.2472
   87.1327
   68.1629
   67.1449
  114.7969
   75.2411
    1.9195
   18.8874
   74.0019
  106.2380
   56.6576
    5.8781
   10.5742
   25.5857
   36.9157
   46.4955
   34.7698
   27.6152
   50.1124
   59.3284
   47.4929
   50.6843
   55.7371
   41.6531
    0.9609
  -20.7577
  -15.9149
  -25.0665
  -25.0276
   16.6566
   35.2368
   54.2388
   48.5818
  -51.3112
 -103.7405
  -82.0818
  -57.9673
  -53.4003
  -55.0976
  -50.0832
  -38.6321
  -53.9050
  -61.9316
  -45.9286
  -28.7666
  -34.0197
  -44.9214
  -44.8217
  -66.4759
  -69.3154
  -60.8034
  -79.0601
  -96.5034
  -99.3452
  -90.4120
  -67.0975
  -39.6709
  -47.3809
  -96.8410
 -131.2218
 -126.6205
  -98.6246
  -83.9063
  -85.3889
  -91.6022
  -98.5705
  -96.6331
  -75.9592
  -61.7220
  -76.0004
  -81.2198
  -91.1752
 -109.6874
 -115.9637
 -110.9203
  -99.2146
  -63.4866
  -42.9801
  -54.3094
  -64.6982
  -84.2052
  -81.9756
  -46.4693
  -28.5156
  -39.0328
  -39.8793
  -42.6525
  -54.2672
  -54.3615
  -48.5576
  -46.7635
  -48.2595
  -48.7474
  -46.1923
  -44.8612
  -47.8052
  -47.9868
  -42.8771
  -38.2556
  -31.3492
  -20.8007
   -6.3908
    9.6552
   18.5104
   23.1428
   26.2322
   29.9849
   36.2564
   40.8181
   40.3430
   38.0854
   42.7527
   52.4757
   59.8067
   61.3426
   58.4892
   52.0595
   47.5115
   44.6492
   43.6230
   44.3772
   41.9468
   39.7940
   42.3324
   42.1408
   36.6099
   33.1354
   35.8007
   37.9837
   41.2358
   47.0878
   55.5109
   63.0464
   64.0502
   60.1837
   57.9198
   58.6281
   59.7783
   61.8177
   62.4070
   57.2707
   47.8924
   41.5435
   43.8307
   45.9945
   38.7113
   26.9790
   21.2213
   20.1575
   16.1421
    9.6360
    5.4737
    9.0924
   15.3953
   17.6586
   16.5527
   17.1433
   16.4306
    8.9298
   -0.1751
   -7.3292
  -10.7694
  -10.3778
  -13.3348
  -20.0421
  -22.8935
  -20.3634
  -16.9626
  -19.4658
  -22.1311
  -22.7323
  -23.7661
  -24.0262
  -25.5546
  -23.9658
  -22.0426
  -23.5660
  -21.8650
  -18.3931
  -20.4271
  -22.1097
  -19.1097
  -15.5545
  -12.0946
  -10.1812
   -7.0141
   -7.0879
   -6.2586
   -5.0189
   -6.6182
  -10.1728
  -10.1464
   -9.1942
  -10.7351
  -13.0578
  -10.6223
   -6.2357
    1.2822
   11.8056
   16.7130
   20.2697
   31.6158
   44.3337
   50.3699
   54.0649
   54.3649
   55.2454
   59.6476
   63.2171
   63.4768
   63.3944
   65.8724
   65.2059
   62.8992
   62.8136
   60.9360
   63.8095
   73.8455
   83.8085
   79.6982
   66.0916
   58.6241
   57.4796
   54.2875
   49.4341
   46.7258
   44.3864
   43.4268
   46.8119
   51.4213
   49.8006
   46.5300
   47.8637
   49.9583
   48.3967
   48.7905
   54.3595
   59.6114
   56.5187
   53.1447
   55.5865
   57.7433
   57.8216
   57.7085
   52.8714
   44.9009
   38.6514
   36.2338
   31.4486
   24.0129
   16.1025
    9.5282
    3.5427
   -3.4487
   -8.3315
  -12.2785
  -15.6131
  -18.7692
  -21.9404
  -25.6911
  -31.7576
  -34.7327
  -31.3697
  -29.7956
  -35.1259
  -39.1484
  -38.8472
  -37.1979
  -37.7433
  -42.6692
  -46.4379
  -46.6395
  -43.9853
  -40.2210
  -38.5680
  -38.4410
  -36.3501
  -33.9145
  -32.7101
  -32.0066
  -33.7606
  -35.3760
  -33.8902
  -33.6130
  -34.9102
  -35.5281
  -32.4880
  -28.6463
  -29.7159
  -32.9619
  -36.4212
  -39.6480
  -38.9466
  -36.4821
  -35.1473
  -32.1977
  -31.4408
  -31.4212
  -28.5109
  -28.1430
  -29.7692
  -29.8489
  -27.9109
  -21.8533
  -15.9070
  -11.8608
   -6.7261
   -5.5932
   -5.1609
   -5.1528
   -6.0609
   -5.0981
   -1.9900
   -0.3932
   -0.7188
   -1.0033
    0.2164
    4.4526
    6.8398
    4.5450
    0.6626
   -5.3787
   -8.4456
   -6.8645
   -0.4356
    7.4646
   13.8549
   20.5193
   26.9096
   30.3502
   31.0707
   34.6865
   46.4367
   60.4271
   68.3138
   73.3196
   79.3692
   81.9911
   78.2174
   69.1735
   59.9618
   55.1117
   52.4897
   50.5127
   49.4691
   47.7067
   47.0498
   50.8459
   55.6721
   56.4936
   55.6538
   56.4466
   58.3703
   59.2954
   57.7078
   53.2771
   48.4847
   41.8750
   34.3141
   26.8169
   19.5650
   17.2667
   17.0909
   20.3828
   24.7624
   25.5413
   23.7618
   20.4832
   17.1964
   14.0940
    9.6912
    8.9857
   12.3205
   15.5737
   14.1353
   10.0215
    6.6682
    5.6658
    4.8388
   -3.5145
  -18.1176
  -31.7378
  -40.5346
  -45.5008
  -52.4468
  -60.4230
  -63.3525
  -62.1889
  -60.5404
  -57.6018
  -56.9092
  -60.4547
  -63.5943
  -61.3640
  -62.4233
  -66.0339
  -65.5155
  -63.7241
  -62.8185
  -63.9996
  -66.3808
  -65.4407
  -62.0545
  -56.9634
  -51.7887
  -50.4593
  -53.5306
  -52.8617
  -47.7674
  -47.3907
  -49.8274
  -48.4231
  -42.0998
  -38.4326
  -38.0387
  -38.4163
  -38.3020
  -37.1287
  -37.0660
  -37.6414
  -35.8288
  -37.1613
  -38.8832
  -36.0783
  -34.7070
  -32.7932
  -28.7911
  -23.3747
  -16.8599
  -13.5832
   -7.4161
    1.1779
    4.2323
    2.3922
   -1.2442
   -3.5228
   -2.0133
    4.6257
   11.1409
   10.6974
    7.1990
    8.6863
   19.3522
   33.9264
   40.6131
   43.9066
   48.9839
   52.4651
   51.8543
   49.6156
   49.5706
   49.8500
   49.1313
   47.7718
   43.8349
   37.3712
   34.8912
   35.9473
   40.6685
   44.9971
   43.0955
   44.6468
   44.5680
   39.7906
   34.5540
   31.2145
   31.0496
   31.1289
   31.9252
   31.7428
   25.9808
   17.0772
   10.5980
   11.3810
   14.2734
   15.2957
   18.6626
   21.4180
   22.4086
   22.9828
   23.5778
   30.2523
   30.9566
   23.9771
   17.4917
   11.6687
   10.2009
   10.7149
   10.5176
   10.0672
    9.8645
    5.8113
    1.0812
   -1.8121
  -10.3566
  -20.9354
  -24.0417
  -21.7001
  -22.5478
  -29.8134
  -36.1065
  -37.1747
  -34.0445
  -32.7215
  -37.3775
  -42.6567
  -48.3739
  -48.1281
  -44.3039
  -43.8103
  -44.0950
  -38.8130
  -30.1069
  -26.9477
  -25.5182
  -22.6563
  -19.0269
  -15.5039
  -14.7543
  -18.6177
  -23.7747
  -22.7641
  -18.1111
  -13.3150
  -13.8837
  -17.8992
  -18.8833
  -19.1624
  -15.8875
   -9.7614
   -8.6472
  -11.5398
   -7.8904
   -2.4805
   -3.2693
   -2.1913
    5.5633
   15.5699
   17.9355
   17.2791
   20.3707
   24.6729
   31.9716
   31.5629
   25.3029
   24.5561
   30.4418
   36.3574
   36.0045
   33.6498
   35.0385
   37.3002
   37.1917
   35.6069
   32.2140
   28.8815
   25.6643
   24.0539
   26.4912
   29.1599
   31.9987
   37.5713
   42.6528
   42.9660
   39.8575
   37.5647
   36.0021
   36.8564
   32.6444
   27.8439
   20.5678
   16.8069
   20.3501
   20.5497
   13.8965
    7.7529
    5.1652
    1.9275
   -1.9646
   -2.5719
   -2.7193
   -4.7873
   -5.3858
   -1.2284
    1.9377
    1.2969
    0.5904
    0.3084
   -0.7524
   -2.5568
   -6.0535
   -9.3039
  -12.0632
  -13.8160
  -11.3603
  -10.0194
  -14.2708
  -14.7321
  -11.0185
  -10.0618
   -7.4388
   -1.9475
    2.8356
    4.3312
    4.0131
    6.1247
   13.9037
   24.0815
   29.3662
   32.5654
   34.9293
   39.0467
   41.6180
   38.4258
   36.8062
   39.6778
   38.4974
   32.1546
   27.4164
   23.9198
   16.7234
    8.9881
    6.2701
    6.6790
    9.0835
   16.2366
   23.4979
   26.2922
   26.6948
   26.0164
   25.9367
   29.2221
   33.8604
   36.0803
   33.5136
   25.8381
   18.7342
   17.6823
   19.0273
   17.7739
   10.2054
    0.5951
   -5.9273
   -7.4966
   -1.3817
    7.1682
   12.4458
   11.4439
    6.3172
    2.6500
    5.7582
   11.9436
   12.8921
   10.1082
   12.2336
   11.3106
    6.1848
    5.4181
   16.3478
   22.0704
   14.9532
    6.3175
    1.0036
   -1.6553
   -4.6772
   -8.8864
  -12.8475
  -15.5074
  -16.8836
  -18.3682
  -25.5086
  -35.1369
  -41.4688
  -47.2060
  -53.1593
  -52.7245
  -49.0850
  -47.1451
  -45.2221
  -45.5131
  -47.1497
  -48.9787
  -55.1597
  -61.0923
  -65.7256
  -71.8137
  -76.7280
  -79.4573
  -81.6991
  -86.2338
  -90.9531
  -90.1212
  -82.1270
  -76.6587
  -84.0768
  -89.0186
  -82.5378
  -73.9847
  -67.2146
  -64.7837
  -66.3221
  -63.2412
  -54.0040
  -45.8895
  -40.5249
  -36.8685
  -31.8561
  -28.5388
  -30.7100
  -33.0302
  -29.5759
  -20.8677
  -13.5021
  -11.4044
  -14.2528
  -16.3894
   -7.8538
    4.3355
   12.6273
   14.9767
   11.6556
    9.4645
   11.5505
   15.5343
   21.6209
   26.4026
   27.1841
   28.4622
   32.2588
   37.4633
   41.8818
   43.7116
   41.3694
   39.5186
   45.1202
   49.8524
   54.6943
   59.3789
   57.2022
   54.1564
   54.3407
   55.9196
   55.6971
   54.5472
   54.3325
   54.8975
   54.7523
   54.4401
   55.5345
   58.3982
   60.5350
   57.5623
   57.4150
   59.5433
   60.6427
   60.3482
   60.4828
   64.2417
   64.8163
   59.7324
   57.0006
   58.2982
   59.8834
   55.1795
   44.0523
   32.2571
   25.5697
   29.9720
   37.3132
   41.5878
   47.7562
   57.7133
   70.4721
   80.2430
   79.7251
   71.0849
   62.8458
   60.2067
   56.1508
   46.1702
   37.4186
   32.4423
   28.4774
   24.5604
   17.7789
   12.8236
    7.2728
    3.6947
    4.2274
    5.1902
    3.4306
    0.6828
   -2.9852
   -5.0870
   -6.2645
   -4.3243
   -2.6590
   -6.6435
   -9.9657
   -9.3502
   -6.3940
   -3.9931
    0.3571
    3.9373
    4.8612
    2.1955
   -3.0734
   -5.2556
   -2.4380
   -3.4812
  -10.7952
  -18.7892
  -20.6903
  -24.3349
  -33.0318
  -41.5587
  -48.0808
  -49.9547
  -51.8579
  -60.8904
  -65.0487
  -61.9155
  -62.6767
  -65.5835
  -69.0334
  -73.0164
  -75.7671
  -76.9792
  -78.3815
  -79.4798
  -77.4184
  -75.7047
  -78.1230
  -78.5638
  -72.7065
  -66.4904
  -62.3357
  -60.5807
  -60.4058
  -60.4201
  -61.1375
  -61.7278
  -59.7137
  -56.8629
  -52.6256
  -52.7912
  -55.4408
  -51.9399
  -43.1219
  -36.5281
  -35.2536
  -33.6146
  -30.7114
  -31.3946
  -34.9437
  -34.4135
  -24.4157
  -12.0567
   -5.6972
   -5.2102
   -5.7948
   -3.9444
    1.5694
    5.1809
    8.1716
   11.9407
   17.2964
   17.1560
   10.9454
    8.2175
   14.1241
   24.4505
   26.9283
   26.4033
   28.0632
   32.6578
   40.7335
   48.3770
   54.3601
   50.0855
   44.0243
   39.0056
   32.7031
   29.9225
   36.8717
   49.6497
   54.3628
   49.4306
   41.3876
   35.8892
   32.2307
   33.4839
   35.1739
   34.1063
   32.4317
   28.6841
   29.9741
   39.3972
   45.3943
   42.2801
   37.5786
   37.4753
   40.1465
   40.1901
   39.6315
   40.2395
   43.2677
   49.3456
   53.9626
   56.7444
   58.6194
   60.6532
   61.1340
   58.5812
   55.0560
   53.5641
   55.0186
   55.7461
   53.9476
   51.0112
   49.4636
   47.9549
   44.3791
   40.3588
   38.0863
   38.0171
   39.6475
   41.3376
   42.9336
   43.4379
   39.2284
   36.3255
   36.2027
   34.9378
   31.5034
   26.8128
   26.5407
   29.5960
   30.5089
   28.4344
   25.4410
   24.2058
   24.8513
   24.0177
   21.0055
   18.6926
   18.3675
   18.5465
   15.5421
   10.0527
    7.1730
    5.7202
    5.1573
    6.2735
    5.9576
    4.8035
    4.5444
    4.0964
    1.8281
   -1.9707
   -3.8626
   -2.6378
   -0.6204
   -1.9650
   -7.7024
  -12.6039
  -13.4207
   -9.8291
   -5.3719
   -4.2053
   -5.3637
   -7.3676
   -8.9080
   -9.7332
  -11.6715
  -12.8545
  -11.5468
   -9.5116
   -8.9695
   -9.0227
  -11.8960
  -14.8984
  -14.4223
  -13.6080
  -14.4164
  -15.2894
  -15.2499
  -13.2522
  -11.3332
  -13.5981
  -18.2556
  -18.5725
  -13.4549
   -8.9265
   -8.7012
  -11.5839
  -13.6343
  -13.2889
  -14.0398
  -16.5210
  -17.9247
  -18.0977
  -16.2804
  -15.9672
  -18.0222
  -20.5919
  -23.1473
  -22.2125
  -18.4882
  -15.9013
  -14.5598
  -12.4758
   -9.9550
   -9.6545
  -12.2424
  -15.4341
  -17.1026
  -17.2510
  -18.7130
  -22.5128
  -25.5742
  -26.6390
  -27.2706
  -28.6733
  -29.8641
  -31.0158
  -31.4900
  -30.2457
  -30.1195
  -32.4643
  -34.4615
  -34.1997
  -31.1909
  -30.2896
  -32.1427
  -32.4385
  -30.5993
  -27.4755
  -26.1855
  -27.5276
  -28.9028
  -29.7860
  -30.4442
  -30.2131
  -30.0365
  -29.8062
  -28.9183
  -27.9291
  -28.5896
  -32.2249
  -35.9577
  -36.1544
  -32.6061
  -30.1621
  -31.1229
  -34.6482
  -37.0482
  -35.7237
  -33.6289
  -33.5663
  -34.4394
  -34.7258
  -34.0784
  -34.3557
  -35.8176
  -36.7308
  -36.4676
  -34.2231
  -32.9469
  -35.2714
  -38.5951
  -38.2332
  -35.2224
  -32.9957
  -31.4253
  -28.6960
  -26.3206
  -25.2078
  -24.0733
  -23.6444
  -25.2678
  -26.8515
  -24.1720
  -19.7957
  -17.8569
  -17.4799
  -17.0947
  -13.7773
   -9.9154
  -10.8880
  -13.2764
  -12.2166
   -8.5912
   -7.8032
  -12.6923
  -16.2253
  -13.6612
   -8.7550
   -7.3170
   -8.5053
   -7.4632
   -3.9325
   -3.3385
   -6.9574
  -11.2630
   -8.7760
   -2.8055
   -1.4600
   -2.1631
   -5.0823
   -7.6447
   -8.7222
   -8.0831
   -4.0349
   -1.3963
   -1.7146
    1.0102
    5.0279
    7.8396
    8.5289
    8.9628
    9.0871
   15.9733
   24.3814
   20.0031
   15.3236
   19.9275
   24.3401
   22.4643
   18.2029
   17.3250
   18.6586
   20.4222
   20.6072
   15.9905
   11.0266
   10.6189
   13.1520
   18.1139
   19.4928
   13.3936
   11.9851
   16.9502
   20.1391
   26.9485
   32.9888
   31.0283
   26.8656
   21.8546
   15.4486
   13.3239
   21.6075
   31.5806
   24.5143
   12.2618
    6.9085
    8.1242
   12.0512
   11.0120
    7.0603
    9.3024
   12.7565
   17.5698
   18.3337
   16.0323
   15.0674
   19.5839
   18.3298
   16.8243
   17.0060
    4.3767
  -10.7765
  -11.5189
   -6.9534
   -8.3556
   -8.9798
   -2.6155
   11.9163
   15.9894
    1.8373
   -7.8411
   -6.5093
   -1.5823
    1.8447
    3.8040
   -6.0540
  -10.1555
    2.8658
    9.5971
   -6.0538
  -16.9732
  -14.9870
   -4.2238
    9.6580
    0.4167
  -17.3548
  -13.5616
   -2.6405
   -3.3151
  -12.5160
  -19.8726
  -20.0556
  -16.4143
  -23.3883
  -18.8173
   -9.9394
   -7.7065
   -4.3156
   -6.9645
   23.7535
   29.3339
  -21.2146
  -42.9666
   10.7278
   15.7267
  -26.8669
   15.0040
  122.4219
  140.6172
   76.5341
    0.0989
  -26.5139
  -34.1681
  -44.3795
   32.9817
  102.0199
  100.8953
   18.5252
  -81.5357
 -124.1826
 -128.7831
 -145.0653
 -140.3890
 -114.4584
  -97.8365
  -83.9615
  -62.1158
  -51.5920
  -58.0802
  -70.6309
  -76.2728
  -58.3081
  -38.2833
  -25.1235
  -18.6912
  -14.5028
   -9.2522
  -10.3315
  -19.2712
  -29.4063
  -34.3702
  -31.1681
  -24.7914
  -29.4989
  -42.4596
  -47.5914
  -34.9676
  -26.5714
  -36.0681
  -41.3701
  -39.0639
  -34.3800
  -29.2930
  -28.8691
  -32.1038
  -31.6810
  -27.0823
  -22.2438
  -20.7159
  -21.9120
  -20.9648
  -18.5206
  -17.9649
  -20.7842
  -23.3033
  -22.9215
  -20.7592
  -18.8366
  -18.0163
  -19.1989
  -21.7109
  -21.7246
  -18.7457
  -17.7632
  -18.3256
  -19.3955
  -19.8908
  -15.1826
   -8.7273
   -5.2078
   -5.0298
   -7.2453
   -7.8203
   -8.4198
  -10.6036
  -10.6163
   -6.5178
   -3.5418
   -4.7800
   -8.4649
  -10.0760
   -9.0194
   -8.4753
   -8.3399
   -8.3349
   -6.4137
   -1.8270
    0.7275
   -0.4757
   -1.5691
   -0.3732
   -1.9503
   -5.5544
   -5.8206
   -4.0647
   -2.4069
    0.9552
    4.1128
    3.4492
   -1.5793
   -6.8260
   -7.8975
   -5.6686
   -4.5125
   -6.5290
   -7.4612
   -5.9391
   -4.8759
   -2.3340
   -0.0674
   -0.1380
    0.1006
    2.7038
    5.3416
    6.5932
    6.9969
    9.0808
   11.3180
   10.7987
    8.3282
    5.1574
    4.5708
    7.1290
    9.3872
    9.3799
    7.8828
    8.0705
   12.4299
   16.0512
   22.3123
   37.4391
   32.5428
   14.8374
    6.4765
   -5.1924
  -12.7034
   -9.8226
   -2.3369
    3.2392
    3.2103
    2.7435
    7.0932
   10.1740
   10.2041
   10.5735
    9.7635
   11.0487
   20.9557
   22.2878
    6.9144
    1.0160
   11.8239
   27.1975
   30.5995
   21.1493
    8.3702
    8.6024
   17.7376
   12.2458
    2.4005
   -0.7102
    2.7286
    5.9185
    9.2130
   15.7886
   16.6797
   13.6520
   13.2804
   12.0099
   18.9784
   25.2743
   14.2078
   -3.2351
   -3.6629
   -3.7015
  -10.0969
  -11.0601
  -12.1800
  -15.6513
  -21.0829
  -20.0427
  -11.6566
    2.7745
   25.0522
   28.3992
   29.5249
   55.1781
   58.2607
   59.4963
   41.6033
  -29.3741
  -78.2580
  -77.1152
  -52.4923
  -30.4609
    0.9020
  106.1851
  209.5176
  144.8717
   31.5948
    2.2878
   67.9141
  185.7961
  139.1069
   83.3518
  120.7582
   24.3584
 -133.6841
 -211.6539
 -238.9352
 -151.7754
  -45.8124
   -5.7227
   19.2978
   66.6730
   87.7248
  -19.6985
 -145.5897
 -138.9716
  -35.2486
   32.4743
  -19.3698
  -62.6442
  -43.2126
   12.5282
   20.8721
  -50.5348
  -75.2419
    0.3494
   64.7036
   25.3874
   20.0052
   69.2737
   30.6113
  -49.3984
  -66.5316
  -53.5157
  -53.1514
  -47.4935
  -41.8415
  -52.9890
  -56.5919
  -38.3856
  -22.2845
  -21.2808
  -20.1136
  -13.3577
  -12.1388
  -18.7743
  -15.4000
    6.4074
   17.9830
   20.1889
   -0.8029
  -17.9172
    4.1581
   35.2644
   23.1735
    1.2946
   -5.5923
  -10.4748
   -5.1442
    5.4259
  -11.0751
  -26.4949
  -22.9749
    2.6449
   18.8073
    7.2539
    9.1819
    6.7811
  -23.8502
  -34.1180
  -24.5591
  -22.3830
  -26.1364
  -19.9151
   -9.5917
  -11.0510
  -13.9163
  -10.0086
   -5.9884
   -5.3630
   -5.4833
   -5.6636
   -3.6993
   -0.6763
    0.3612
    0.0569
   -1.3755
   -0.6816
    2.6691
    4.9601
    4.0636
    0.9859
    1.6044
    6.4317
   11.2624
   12.6828
    8.3746
    6.1816
   10.1619
   16.3880
   21.3583
   17.8621
   13.4235
   13.8907
   20.5757
   26.1762
   25.9959
   25.1571
   27.1736
   29.2935
   29.8174
   28.7964
   33.4878
   37.7309
   36.8015
   37.0572
   39.5079
   40.0114
   40.1141
   41.1173
   44.1773
   43.2692
   38.5431
   38.1983
   37.3646
   33.7365
   30.1996
   28.6027
   28.3343
   28.5137
   27.5387
   24.8392
   22.1869
   21.4971
   21.3629
   19.2243
   16.3655
   15.3489
   17.7308
   22.8600
   26.9932
   28.1778
   27.9877
   29.4455
   34.0210
   37.5214
   36.1377
   34.2949
   35.5033
   37.4918
   35.5338
   28.6538
   24.5949
   25.5907
   27.8680
   26.8559
   22.1010
   18.4692
   20.3778
   22.6728
   22.0227
   17.6438
   13.5670
   15.7103
   19.5529
   18.4681
   17.8164
   19.6800
   21.2185
   23.3256
   19.5400
   16.5807
   12.6447
   11.3792
   14.9290
   16.5388
   14.6404
   14.2230
   17.5909
   20.7936
   18.6658
   14.2587
    9.4109
    8.6926
   13.1814
   10.7298
    5.6280
    4.9387
    7.6637
    7.9054
    5.6322
    3.4425
    3.6720
    7.4769
   11.6128
    8.2727
   -1.3408
   -2.3681
    2.4024
    4.1730
    1.6077
   -5.0650
   -8.3714
   -5.4358
   -0.7477
   -2.8590
   -8.0099
  -16.6418
  -20.8338
  -15.4339
  -11.3980
  -19.7249
  -20.4234
  -10.9121
  -12.9238
  -24.0316
  -21.1969
   -6.5849
   -0.0422
    6.9263
    6.5701
   -7.7640
  -11.1568
   15.5919
   43.9458
   38.6723
   25.0526
   27.9244
   12.1770
  -21.0155
    6.0969
   37.8483
   36.3169
   50.9161
   34.1855
   -9.1638
  -14.2134
   -4.4995
  -19.2216
  -25.8978
  -22.5505
   -5.2394
   22.7321
   23.6347
   39.4948
   58.5160
   57.3489
   16.9236
  -54.4336
  -71.5583
  -21.9008
   -0.1510
  -19.9057
  -45.1082
  -70.8999
  -89.9524
  -83.3183
  -27.6847
   48.0639
   15.4476
  -63.2451
  -51.9983
    6.6094
   21.0880
   -8.4175
  -43.9526
  -29.8465
   11.5815
  -19.1247
  -65.9961
  -56.8063
  -41.7172
  -55.6957
  -76.3847
  -73.7611
  -42.8817
  -28.7882
  -51.5862
  -65.5447
  -58.3811
  -49.7486
  -46.7897
  -46.6759
  -50.1974
  -50.4017
  -43.2858
  -36.7148
  -35.9855
  -34.8639
  -35.4152
  -38.9658
  -40.9573
  -38.2427
  -33.2193
  -28.1453
  -25.6319
  -25.9414
  -25.9145
  -26.6382
  -27.8492
  -31.4300
  -34.5149
  -34.7957
  -33.9486
  -32.0576
  -27.1705
  -22.7916
  -25.3911
  -25.1315
  -23.2184
  -23.3496
  -19.9079
   -8.1173
   -0.2541
   -0.9825
  -10.9486
  -26.6671
  -25.5332
  -16.0275
  -17.8763
  -17.9147
   -8.2301
   -3.7612
   -7.1148
  -15.5830
  -16.0665
   -7.5983
  -10.5783
  -14.1328
  -11.0830
  -14.9205
  -19.3434
  -20.9512
  -12.6540
    1.7312
    8.2842
   -2.8749
  -18.8705
  -17.5452
   -7.9775
    4.8403
    7.4178
   -3.7313
  -13.8404
  -12.9528
  -10.8876
  -13.3451
   -5.7715
    1.2160
   -0.0832
   -0.3101
    0.0866
  -12.9343
  -24.6554
  -19.8532
   -9.8763
  -15.0832
  -24.5276
  -25.1001
  -20.6796
  -15.6298
  -13.4170
  -11.6021
   -5.9076
   -3.5794
  -12.9484
  -19.7683
  -14.1839
   -7.2206
   -7.1073
   -8.3818
   -3.1748
    3.9692
    1.2645
    0.8946
    3.1742
   -3.6769
   -1.2385
    5.1536
    9.9371
    7.3634
    0.5612
    1.2726
    7.5402
   10.5472
    8.5552
    2.9310
   -2.7872
   -1.2147
    5.3023
    6.9285
    5.3309
    6.2801
    6.7150
    6.5365
    4.8945
    1.8484
    1.4581
    2.2414
    3.8136
    5.2711
    5.5318
    4.3065
    2.2849
    1.3164
    0.8967
    1.3953
    4.7621
    4.3023
    3.2509
    4.6476
    5.9354
    5.8128
    7.1928
    9.9502
   12.0128
   12.4446
   12.5836
   17.1631
   22.1682
   23.3510
   21.0940
   18.7068
   13.8650
   12.7721
   16.9319
   18.2547
   17.9658
   19.2961
   22.3364
   24.8765
   23.0090
   19.5177
   20.8865
   28.7656
   37.5097
   40.0613
   38.6432
   39.8321
   39.4198
   32.5971
   24.6392
   22.8247
   24.9814
   23.6595
   20.3354
   14.1176
   10.9171
   13.4984
   17.9883
   21.0635
   19.3425
   17.8835
   22.1077
   23.2763
   20.6408
   19.2139
   19.8169
   24.4206
   30.5634
   32.3278
   28.4495
   28.1765
   34.2816
   36.5193
   30.7805
   24.6235
   24.0922
   27.4349
   32.2597
   31.2821
   32.7904
   34.6416
   33.1788
   29.3380
   27.0644
   32.1962
   38.1213
   41.6733
   41.0961
   35.5671
   30.6201
   28.0478
   25.5735
   23.5116
   21.1048
   18.1134
   16.8610
   18.8427
   23.1784
   24.4157
   22.5722
   22.1984
   24.7703
   32.5728
   41.4833
   38.0306
   31.3468
   32.3699
   39.5946
   36.6505
   29.2615
   26.3421
   24.8624
   26.5949
   29.2405
   27.4154
   22.7382
   21.8667
   18.1179
   10.6733
   10.3000
   12.2824
   12.8864
   16.6251
   16.2904
   11.2184
    8.1963
   10.0081
   12.7340
   11.1531
    9.7205
    9.2333
    9.2943
    9.0087
    5.5235
    6.5140
    9.3251
    9.5273
    8.4158
    8.7545
    7.7709
    0.5277
   -2.1150
    4.3820
   11.2731
   11.1687
    7.2148
    5.9944
    7.1413
    6.4197
    1.7017
   -1.4185
   -0.1917
    2.7062
    4.9368
    2.8057
    3.2265
    7.4211
    8.6646
    2.4537
    0.5619
    4.9235
    9.6915
   14.5698
   14.4496
   13.7519
   14.3033
   11.9850
   12.8386
   20.4491
   27.0268
   26.6282
   26.8067
   31.4515
   29.7272
   24.4483
   26.3403
   31.4957
   29.2617
   24.1411
   24.2964
   27.0297
   28.8404
   30.7139
   25.4093
   16.3718
   11.8785
    9.4579
   11.2105
   16.9934
   16.6776
    9.4714
    6.3523
    6.9133
    5.6546
    3.4817
    4.4779
    5.0619
    3.7524
    1.5176
   -0.9257
   -1.8483
    1.3782
    3.9105
    3.3889
    0.9327
    1.6653
    6.9791
    7.2638
    2.0179
   -3.6060
   -4.0633
   -0.1832
    2.7949
    0.6111
   -4.9517
   -6.9846
   -4.5035
   -0.2906
    1.6776
   -1.7880
   -5.7768
   -8.2818
   -8.1565
   -9.3972
  -13.3524
  -14.9608
  -11.0645
   -6.3650
  -11.1038
  -15.8036
  -16.1667
  -15.6339
  -15.3921
  -18.0152
  -20.7662
  -21.7262
  -20.2051
  -18.0513
  -15.9862
  -16.5313
  -18.2347
  -20.2666
  -22.2161
  -17.8134
  -13.8207
  -15.5484
  -17.5520
  -16.5866
  -15.3183
  -16.2220
  -13.0349
  -12.8303
  -15.9757
  -17.9397
  -20.6033
  -21.6370
  -18.4840
  -15.6556
  -18.0593
  -23.2970
  -27.0848
  -25.8050
  -23.9009
  -25.3702
  -28.1084
  -30.8965
  -31.8322
  -31.2103
  -29.9295
  -29.5556
  -32.4605
  -32.0287
  -30.9686
  -32.0643
  -33.3085
  -33.2588
  -28.8497
  -25.3303
  -24.7785
  -21.4351
  -12.9530
   -3.8101
   -2.3681
   -5.6219
   -8.3270
   -5.9268
   -0.4945
    4.9922
    6.8848
    7.2381
    8.2926
    6.4005
    6.1779
    6.8371
    5.6580
    1.9016
    0.5352
   -0.0734
   -2.5354
   -6.3909
   -9.1749
   -6.8876
   -1.7611
   -1.1192
   -6.2588
  -10.6752
  -11.1223
  -10.6466
  -13.4177
  -17.0217
  -19.3271
  -22.2635
  -22.2113
  -20.8413
  -25.8272
  -29.4843
  -27.9677
  -24.9989
  -20.7089
  -16.5572
  -14.9589
  -12.0723
  -10.2083
  -13.2306
  -16.0864
  -13.9047
  -14.6996
  -24.2698
  -30.6139
  -32.1167
  -35.7062
  -38.1797
  -41.6289
  -43.6454
  -40.9086
  -36.9570
  -35.3451
  -34.2695
  -35.9131
  -39.5381
  -39.2663
  -37.2747
  -36.0367
  -35.9227
  -35.9622
  -33.7776
  -28.9451
  -24.6351
  -23.9627
  -28.2596
  -28.1484
  -25.9092
  -23.4795
  -18.1250
  -16.7085
  -20.9405
  -22.9644
  -18.1394
  -16.5670
  -18.9893
  -17.3144
  -18.1167
  -22.0824
  -23.5975
  -21.6301
  -18.4310
  -12.9649
  -11.0259
  -12.6246
  -11.1499
   -7.4483
   -6.9889
   -9.9894
  -11.6890
  -12.2473
  -13.0209
  -13.0277
  -11.4367
  -10.8240
  -11.0062
   -7.2661
   -1.9182
    0.8682
    0.0776
   -0.7454
    0.4901
    2.6467
    1.3228
   -1.0497
    0.8325
    3.8262
    4.6121
    4.4847
    3.7862
    3.0077
    1.0818
   -0.6422
    0.9446
    1.7308
    0.4569
   -0.8646
   -3.2453
   -8.1688
  -10.7997
   -8.0069
   -2.0594
    4.1103
    6.7221
    0.6072
   -7.0380
   -9.1721
   -6.2822
   -0.6180
    0.9553
   -2.5003
   -2.2967
    2.8212
    3.9831
   -1.9017
   -6.4187
   -2.7113
    1.2912
    0.8299
   -2.6083
   -6.1179
   -5.8120
   -1.0233
    4.1100
   10.1777
    8.9513
    2.0640
    0.8192
    3.7360
    6.0906
    7.9759
    7.7348
    8.2583
   10.9731
   10.8813
    7.2552
    4.9358
    6.7746
    8.0289
    8.3423
    9.5404
   10.8651
   11.8988
   13.4580
   15.5054
   14.0922
   12.5739
   14.7695
   15.0831
   13.8334
   13.1723
   15.2721
   16.6991
   14.6571
   12.1250
   12.1084
   13.9937
   14.0261
   11.0469
    8.2472
    6.2539
    7.5176
   14.0270
   20.2209
   21.2170
   19.7358
   20.6976
   24.9760
   26.4931
   23.9420
   20.4345
   21.8831
   26.4184
   26.3552
   21.4298
   16.0201
   13.5096
   13.2403
   14.9707
   18.0314
   19.9348
   22.4629
   26.3352
   28.5338
   20.8966
   13.0343
   16.7127
   26.4728
   33.0798
   30.7286
   26.9151
   30.6288
   35.7703
   35.7906
   30.6335
   26.4464
   25.3498
   27.5440
   30.6411
   29.0509
   25.4638
   26.1148
   30.8149
   34.5487
   33.0542
   28.2694
   24.9033
   23.8795
   21.7900
   18.5661
   15.3172
   15.3219
   15.9626
   14.0171
   12.3774
   13.2666
   15.3342
   14.8832
   16.4487
   18.0438
   16.0825
   15.0477
   16.8153
   20.0889
   22.5395
   23.7554
   26.3231
   29.0772
   29.8638
   28.8549
   27.1761
   26.6871
   26.9303
   28.1149
   27.0026
   22.6151
   21.0001
   24.3994
   27.2950
   24.3444
   19.6836
   20.8192
   24.5640
   24.4266
   20.6563
   18.9133
   20.8841
   22.6728
   20.1099
   16.1800
   14.5510
   16.3652
   20.7734
   24.1922
   23.8501
   18.0592
    8.1678
    3.0886
    6.7206
    9.7252
    8.8506
    7.4958
    6.5021
    5.4876
    5.7807
    8.4484
   12.6198
   15.0728
   13.7286
    9.8526
    7.4989
    7.8716
    9.0959
    9.3582
    8.0704
    5.3588
    5.1497
    8.2647
   11.6424
   11.3136
    5.6522
    1.9017
    2.6537
    5.1505
    5.2269
    3.7636
    3.6760
    4.1388
    3.4681
    0.4283
   -0.6991
    2.1262
    6.2727
    7.8248
    4.6386
    0.9609
    1.5936
    4.9644
    7.0897
    6.7267
    5.5338
    7.1590
    9.4154
   10.1000
    9.3364
    5.9879
    2.8713
    1.6830
   -0.0074
   -0.1126
    0.8623
    1.4143
    2.9017
    2.3661
    0.5495
    1.6987
    4.3778
    6.4942
    5.4764
   -0.3188
   -8.4273
  -12.8351
  -10.8433
   -9.5781
  -13.4751
  -17.1755
  -16.2675
  -11.6351
   -7.5285
   -6.6746
   -9.0275
  -11.4624
  -14.2895
  -16.9314
  -19.2045
  -19.2570
  -17.3288
  -17.9335
  -21.2836
  -23.9587
  -23.5620
  -22.2690
  -21.1607
  -22.8794
  -28.8376
  -32.6215
  -29.8745
  -24.7044
  -20.7106
  -18.9312
  -20.7160
  -19.3268
  -14.4793
  -12.0327
  -13.2299
  -16.6704
  -18.2399
  -16.3969
  -13.4544
  -11.1962
   -8.0528
   -3.6800
   -0.9007
   -2.9622
   -4.4362
   -2.3692
    0.4035
    1.9384
    4.1564
    4.6554
   -0.3481
   -3.3824
    0.8411
    4.5984
    2.3422
   -2.2570
   -6.0200
   -4.7629
   -0.9197
    1.8724
   -1.3230
  -10.7308
  -13.2327
   -8.7956
   -7.4644
   -8.4428
   -6.2954
   -1.6811
    1.2573
    1.9953
    2.6790
    6.4244
   10.0146
    8.9866
    8.0303
   13.1896
   10.2419
    0.4599
   -5.9528
  -11.1462
  -14.9868
  -15.7903
  -14.2115
  -11.6177
  -13.2053
  -17.9363
  -17.4061
  -12.6395
  -10.9938
  -15.0387
  -20.4397
  -20.3258
  -17.7059
  -18.8441
  -24.5189
  -31.0351
  -34.4235
  -33.8419
  -33.0600
  -34.7038
  -37.2182
  -37.6131
  -37.7868
  -39.7238
  -42.3878
  -45.4654
  -46.9521
  -45.1533
  -43.2905
  -42.7488
  -41.0869
  -39.8843
  -41.1872
  -44.4942
  -47.8266
  -45.8280
  -40.3954
  -38.5402
  -41.4252
  -44.9498
  -49.2754
  -48.4718
  -40.6624
  -33.2659
  -31.0208
  -35.0800
  -39.6207
  -39.7508
  -36.8719
  -40.0045
  -45.1073
  -43.0680
  -42.5244
  -43.4744
  -37.5095
  -33.8183
  -30.7042
  -26.2626
  -24.7092
  -23.0906
  -20.9330
  -21.7405
  -21.4562
  -18.5828
  -18.6173
  -16.6334
  -10.4898
   -6.8670
   -8.4730
  -10.1533
  -10.1325
   -5.7747
   -3.6273
   -6.4096
   -9.3692
  -12.3198
  -15.1423
  -14.8445
  -14.0662
  -11.2897
  -11.2303
  -14.2302
  -13.4808
  -12.7934
  -13.8336
  -14.5445
  -13.9517
  -11.9558
  -14.0419
  -16.5551
  -14.7071
  -14.9568
  -16.0307
  -13.1285
   -9.3790
   -9.3950
   -4.4370
    0.9704
    4.0686
    4.2870
    4.1917
    0.7161
   -3.6605
   -2.8336
    1.1411
    7.3340
   13.7157
   10.3645
    2.4128
   -4.0299
  -11.4188
   -7.3626
    2.0991
    5.1619
    8.1803
    6.3783
   -1.7810
   -5.8229
    4.4494
    7.5185
   -4.0613
   -2.5029
   14.1649
   16.7021
    7.1842
  -12.5368
  -25.3511
  -18.5005
   -2.9069
   -2.6241
   14.5105
   39.8323
   16.4324
  -10.1918
   -8.3698
    5.3557
   14.4680
    9.8420
    3.2150
   13.2130
   55.5302
   82.1458
   36.8988
    2.7988
    3.3126
    9.8161
   19.3430
   17.4066
   16.3338
   29.7374
   26.1490
   11.4497
    5.8926
   12.0244
   13.2191
   11.7031
   17.8374
   24.6925
   31.4372
   27.6429
   28.5783
   27.4971
   14.5693
    9.1064
    2.6092
    1.7816
   18.1207
   37.6812
   32.4340
    7.7286
   -0.1739
   22.9648
   41.2120
   25.9426
   33.4594
   34.4328
    7.5948
   -4.9488
   -7.9264
    4.3850
   36.5317
   45.2542
   21.0749
    7.3104
   14.1278
   44.6883
   44.7258
   11.7282
   -9.0584
   -7.4073
    2.4847
   31.6445
   30.3191
    4.0489
  -12.5268
    1.1460
   26.3854
   20.9733
   -8.7419
  -20.4722
  -16.3238
   -7.8286
    1.8805
   14.4280
   11.5799
   -5.2040
   -6.9674
   21.9513
   37.0971
   13.3930
   -5.4333
  -12.9300
   -5.9267
   13.7334
   41.2074
   34.5956
   -0.7141
   -8.7342
    1.2327
    6.1143
   12.2348
   10.6728
   23.9039
   17.8362
   -9.0337
  -11.4722
   -1.6162
   -1.3589
    4.4130
  -14.4519
  -33.3252
   -3.1317
   17.1111
  -10.8270
  -25.8023
   -8.8516
   13.1611
   19.2858
   -5.0314
  -24.2191
  -20.4592
   -0.5081
    6.2942
   -2.8489
   -4.8702
   -1.9213
   -2.3273
   -5.4841
   -5.8685
   -3.5055
    0.0069
   -1.4272
   -4.2172
   -1.2145
    9.5068
   10.3146
   -2.8403
   -5.8571
   -1.1743
    0.2814
   -2.5967
   -3.8739
   -4.1226
   -5.7047
   -7.3444
  -10.8459
  -12.2472
  -10.8242
   -8.7404
   -7.8693
   -6.8646
   -3.0800
    0.8086
   -0.0048
   -5.8646
   -9.8113
   -7.2098
   -1.4952
    2.4820
    1.0678
   -0.8690
   -0.6250
   -0.4804
   -0.2903
    1.1609
    4.9221
   10.5691
   15.4468
   17.9918
   16.0985
   11.0721
    6.3222
    4.0616
    0.6890
   -4.7560
   -5.5277
   -4.6885
   -5.1669
   -4.6843
   -7.4222
  -13.1645
  -14.1074
  -10.7601
   -9.5364
  -11.0296
  -15.1238
  -17.4253
  -14.8610
  -13.7661
  -17.5871
  -22.3482
  -23.6377
  -21.3811
  -14.3234
  -16.4072
  -25.8211
  -28.9986
  -27.7860
  -25.7567
  -23.2217
  -14.6374
  -13.4904
  -15.8054
  -15.8416
  -19.2298
  -16.9740
  -13.4751
  -14.1991
  -10.6459
  -14.6781
  -25.5619
  -25.7616
  -12.6877
    0.7155
   -8.6284
  -23.4535
  -17.2961
   -0.5442
   -2.9880
  -12.7336
   -3.8547
   -7.8334
  -12.8881
   -3.6808
    6.4218
   21.0525
   26.0323
   17.6748
   24.1094
   45.2545
   73.0036
   59.8373
   51.8111
   54.3722
   -2.2310
  -62.8393
  -52.6776
  -40.1481
  -34.1184
  -16.5565
   21.4388
  108.7578
  131.3452
   30.3316
  -69.1669
  -74.0541
   20.3981
   85.4660
   37.9679
  -15.9283
  -30.2116
  -10.4608
   24.6731
   77.4142
   86.1687
   25.8466
  -26.7997
  -24.2000
   18.3799
   47.5374
   38.6714
   -2.8138
   -4.8146
   84.6543
  147.5181
  113.3139
   11.3679
  -45.4155
  -35.8928
   31.7911
   10.4999
  -69.0412
  -76.9790
   -5.5634
   56.1184
   40.7503
   70.6257
  100.6816
   26.2493
  -57.5060
  -66.5885
  -25.7651
  -22.1496
  -34.9828
  -16.1895
   11.3907
   21.3108
   19.2015
   11.3247
    4.8725
   -1.6567
    6.6162
   58.3124
   61.2660
   12.2272
   -6.7164
  -13.6834
    0.4961
   30.6563
   43.0172
    7.3082
   -6.8415
   17.3881
   11.0445
    1.4574
   31.0926
   43.4129
   31.7299
   24.6804
   -2.0583
   -6.2544
    8.3069
   28.4787
    7.8118
  -32.9139
  -36.6698
  -23.9595
  -10.7000
    9.8215
    3.6857
  -24.3284
   -9.3937
   18.6473
    9.7362
   -4.8193
  -22.0421
  -19.2602
   13.4872
   25.2921
   -2.6024
  -53.2251
  -73.1996
  -39.5141
  -10.4582
    0.3543
    1.2940
   -7.3022
    7.5279
    4.1917
  -12.9083
   -4.3452
  -26.1681
  -64.6326
  -68.1655
  -58.1311
  -36.3389
   11.7136
   47.1475
    8.4292
  -36.3824
  -34.8448
  -33.8580
  -45.5478
  -40.9195
  -17.1245
   -3.0903
   -1.6490
   -9.9185
  -34.1361
  -38.7871
   -3.8204
    3.5666
  -25.6839
  -46.2321
  -48.8820
  -38.9075
  -32.0094
  -31.2601
  -23.1608
  -13.0714
  -17.7569
  -20.5296
  -22.9712
  -18.9006
  -10.0515
  -20.1594
  -33.6635
  -36.1430
  -33.6450
  -30.3500
  -27.2462
  -23.9336
  -20.3725
  -17.7745
  -16.1499
  -18.0288
  -18.8837
  -18.4491
  -23.5013
  -27.2081
  -23.7623
  -17.2069
  -14.1487
  -13.8899
  -11.3729
   -8.3472
   -6.2147
   -4.1324
   -1.5884
    0.0415
    0.9360
    3.2066
    5.8382
    7.0336
    8.2478
   12.1922
   15.8420
   15.5739
   15.7869
   16.5700
   16.5615
   18.0857
   19.6320
   20.0531
   19.3232
   17.9439
   18.5829
   20.6827
   21.4224
   20.0677
   19.1071
   20.5897
   23.3723
   23.3005
   21.1512
   20.1015
   21.8788
   26.3295
   27.3566
   22.3122
   18.4475
   20.7736
   24.3528
   24.1467
   23.2058
   25.7135
   26.7304
   27.7449
   29.7710
   33.8948
   34.2669
   33.2267
   34.2642
   35.1044
   35.9431
   36.2076
   35.7260
   35.2397
   33.6302
   31.9258
   31.6168
   32.8529
   32.4954
   30.5162
   28.1801
   26.0206
   26.1512
   28.6607
   29.1883
   27.7828
   27.8316
   28.8616
   27.0114
   22.6089
   19.0276
   18.3338
   20.2260
   20.6994
   20.2345
   20.0819
   20.8115
   21.2527
   22.2430
   23.0269
   22.2938
   23.1108
   25.6163
   27.4079
   25.2998
   22.2838
   22.6487
   22.9640
   22.1367
   22.6293
   23.5129
   23.3443
   21.0786
   16.5091
   14.2557
   14.0710
   12.1158
   10.2374
    9.0468
    5.9212
   -2.7009
   -6.0206
   -2.3274
   -1.0233
   -1.6077
   -2.9136
   -3.9012
   -2.1646
   -0.4856
   -3.7322
   -6.9304
   -6.9426
   -6.6118
   -6.5094
   -5.6625
   -5.9605
   -8.1438
  -10.0780
  -10.1748
   -9.3070
   -7.5870
   -4.0860
   -0.0902
    0.9992
   -2.3300
   -6.2468
   -6.3605
   -4.8352
   -6.3233
  -10.4436
  -13.1976
  -13.9443
  -11.8448
   -7.6375
   -5.6892
   -9.2667
  -14.9860
  -18.3515
  -19.3606
  -20.0534
  -21.8379
  -22.6675
  -22.2266
  -21.9092
  -23.0378
  -26.4177
  -30.2117
  -32.8043
  -31.5322
  -28.8334
  -31.8459
  -35.8407
  -34.0099
  -34.9363
  -39.8719
  -43.6497
  -43.5985
  -38.4759
  -34.5947
  -37.1457
  -42.0883
  -41.2815
  -35.0553
  -31.4246
  -32.0848
  -32.3428
  -32.6099
  -33.3522
  -31.4203
  -28.7403
  -28.4109
  -27.5980
  -24.7361
  -23.3124
  -26.0603
  -26.7985
  -21.1960
  -16.5007
  -18.5872
  -20.8333
  -19.5881
  -14.0985
   -4.0252
    1.8118
    0.6365
   -3.6015
   -6.3339
   -6.7177
   -1.9751
    2.0330
    0.4843
   -0.3149
    2.6122
    3.4744
   -1.0413
   -2.6135
    0.0893
    6.0382
   16.3616
   17.6337
    7.9499
    7.6113
   19.7774
   21.0001
   10.6441
    0.0150
   -2.7029
    2.6273
    9.0964
   10.0878
   14.7430
   22.6007
   32.5083
   33.1522
   18.6266
    2.6458
   -2.5129
    1.1936
   10.0257
   26.6074
   35.7254
   24.2759
   21.3149
   19.9783
   16.9098
   27.6506
   41.7908
   38.1583
   25.7662
   18.7680
   12.5205
   12.8075
   20.1497
   30.6975
   40.6146
   31.9215
   11.1390
    4.6805
    6.7931
   -5.3141
  -12.4839
   -0.4156
    9.8221
   11.7609
   10.0483
    5.2082
    0.6235
   -0.4360
  -14.1369
  -39.1512
  -35.6608
  -11.1217
  -16.5029
  -33.0219
  -40.0668
  -39.7523
  -21.5108
  -16.4150
   -4.3129
   14.0191
   12.4074
  -21.8229
  -51.6665
  -50.5387
  -32.8116
  -29.3705
  -31.1011
  -27.6925
  -17.9593
   -7.0187
  -11.6990
  -27.6487
  -26.8841
  -16.7481
   -7.6699
   15.6281
   10.7370
    0.5161
   14.3402
    1.0470
  -11.3355
   -1.4282
    1.5373
   -0.7749
    1.5928
   10.7237
   21.0051
   14.3786
   13.3855
   14.9059
   19.0512
   14.0640
   12.0159
    3.7557
  -21.8072
  -43.0515
  -25.5005
  -10.8200
   -8.4774
   -9.0813
   -1.7766
   13.6955
   15.6152
    0.5274
  -20.7737
  -19.2563
   -3.0681
  -13.3926
   -5.1282
   26.0697
   20.2500